7.197907407432194704e-01
7.005210468077122110e-01
6.774458294309950723e-01
6.610904857258765865e-01
6.498550056553624721e-01
6.373148010735800728e-01
6.348219178851519651e-01
6.309119626623779231e-01
6.211274202418285428e-01
5.862823335268233516e-01
5.640336166532734508e-01
5.687596057637515079e-01
6.126584382716353527e-01
6.351176895375855169e-01
6.312555174202483244e-01
6.299778441381587157e-01
6.594539183168790508e-01
6.855739179742879053e-01
7.063643664974315062e-01
7.081751907275111169e-01
7.197001699786875761e-01
7.402195494712426882e-01
7.479352172753890304e-01
7.495270129392510583e-01
7.582689100348209976e-01
7.707376703717491173e-01
7.647751949215553235e-01
7.585697478608017796e-01
7.426777566840059297e-01
7.396132766333201047e-01
7.499474816092845941e-01
7.403789887121108304e-01
7.529131770874117890e-01
7.610897245172312253e-01
7.722619174260616504e-01
7.954547204360837842e-01
8.114918649144913232e-01
8.358982045728438059e-01
8.555084587332009161e-01
8.450313733651049208e-01
8.108835741532450792e-01
7.971881471000928920e-01
7.615138516967829840e-01
7.276571715055114575e-01
7.206425064079678977e-01
7.221441957996335148e-01
7.368523526187171768e-01
7.339187388918881894e-01
7.232486149482110216e-01
7.178896206703287985e-01
7.214895459367980379e-01
7.397687891367101809e-01
7.541931379321716866e-01
7.511627204073152431e-01
7.639559329336876869e-01
7.680004318285352793e-01
7.463156292945548609e-01
7.452674216648740302e-01
7.566722856340287739e-01
7.727532875311620142e-01
7.851502935450320741e-01
7.915960185248369640e-01
7.944111050412191455e-01
7.833798575234874884e-01
7.815078897662752766e-01
7.814122546300664718e-01
7.822348589035003075e-01
7.864455732740875948e-01
7.948076048477880073e-01
7.788100506999457995e-01
7.487939861324626190e-01
7.290369916946707329e-01
7.352889975526013533e-01
7.391502508723895026e-01
7.434311494296621525e-01
7.360549605243766891e-01
7.311553621676549763e-01
7.317988485437334489e-01
7.313029829757980993e-01
7.242720650155505258e-01
7.238564647612657499e-01
7.123726863791023378e-01
6.994877633361882285e-01
6.890776951421189178e-01
6.730366408744283824e-01
6.600048991024167755e-01
6.568270616792372119e-01
6.662169026465150079e-01
6.790679922715057160e-01
6.859861200823348382e-01
6.995992366632372006e-01
7.127038175035680378e-01
7.166814733320316932e-01
7.223397065463885713e-01
7.347886071998864788e-01
7.388311677824954682e-01
7.481768278588788457e-01
7.536336318570960868e-01
7.464977043215970109e-01
7.371108770000267540e-01
7.129534605511687051e-01
7.153517136199688542e-01
7.180579631646416550e-01
7.108762634019710758e-01
7.160389677637313266e-01
7.203780953871505854e-01
7.218365526971606272e-01
7.297735111560633703e-01
7.404003617214397481e-01
7.386402723989808905e-01
7.497913824925397375e-01
7.386323996764045940e-01
7.286465006990336946e-01
7.179624324314408668e-01
6.985983738054598602e-01
6.944406198972443711e-01
6.955228422266334087e-01
6.828319546614169955e-01
6.949101550554432905e-01
6.962137185948503726e-01
7.005748429015774548e-01
7.069116310790575231e-01
7.116202081710054639e-01
7.118794668972261430e-01
7.223975227313880199e-01
7.166771548782913115e-01
7.209364512475188169e-01
7.234042704278870195e-01
7.316182711218973678e-01
7.324533810445310600e-01
7.345378348359091758e-01
7.318987436801877022e-01
7.320924048534634965e-01
7.183046534249345472e-01
7.100386354975558589e-01
7.059941025646128132e-01
6.940465005396436737e-01
6.681883815631897150e-01
6.518228114070456769e-01
6.417159654143096414e-01
6.274873736030154303e-01
6.248649691756116287e-01
6.322147089570691048e-01
6.359120655685233103e-01
6.473190885918400639e-01
6.546489853021295602e-01
6.551996678977123345e-01
6.600345686254418531e-01
6.719003265348423293e-01
6.825139832012774299e-01
6.786296988316380396e-01
6.749215857164591048e-01
6.803961835759023691e-01
6.770235492121120524e-01
6.720913607953473701e-01
6.704407299140920928e-01
6.641670645799271355e-01
6.618535612742935115e-01
6.535743571922290052e-01
6.478020186037001249e-01
6.393530034688039709e-01
6.373811941108306067e-01
6.463561178169795474e-01
6.532629593170189430e-01
6.598691511654869446e-01
6.655367850286656450e-01
6.679093447331330147e-01
6.608858555446850414e-01
6.676022282256928175e-01
6.799220925261305615e-01
6.949106905183342064e-01
7.185101092241272802e-01
7.347025420402295559e-01
7.637697127628995108e-01
7.820959880561753064e-01
7.882906242671345876e-01
7.971063315635645852e-01
7.940682983222584479e-01
7.768025278144707890e-01
7.596872628695490182e-01
7.398183708070025233e-01
7.171523064306453144e-01
7.064547105641804103e-01
6.966352903980046474e-01
7.001746757804676591e-01
7.031394409320610439e-01
7.189156926834592287e-01
7.486603602119012990e-01
7.603832958639514805e-01
7.561745260713270689e-01
7.574073444424025414e-01
7.477330165360205338e-01
7.467535910250745479e-01
7.567306502499949739e-01
7.574070409161958173e-01
7.453967310210891650e-01
7.443303561602883089e-01
7.471902959198891692e-01
7.534226841330053936e-01
7.385070652393115331e-01
7.433213879673391533e-01
7.664327132376977936e-01
7.405887880293091641e-01
7.096334308528482460e-01
6.850062642732825946e-01
6.798185802838885294e-01
6.719951861412147842e-01
6.379583976766094455e-01
6.232536612478035698e-01
6.269758716059067316e-01
6.441777494350915401e-01
6.466860267483315328e-01
6.333954201580205279e-01
6.039204964289274224e-01
5.974029835723860815e-01
6.006937614606998599e-01
5.752416307879141266e-01
5.856355373923607388e-01
6.181170336880816851e-01
6.759410307907364190e-01
7.049651713821578625e-01
6.827052927641856783e-01
6.937953127204838921e-01
7.073645874796640198e-01
7.031747159074998033e-01
6.841079915774318509e-01
6.413073359972792931e-01
6.009107054852297347e-01
5.807561902713131996e-01
5.736842671074088296e-01
5.750873222074472935e-01
6.050101580594490214e-01
6.463467285423661890e-01
6.921502798892197328e-01
7.113965853443130483e-01
6.937885056377739446e-01
6.855279123875186453e-01
6.931725864637460210e-01
7.119173287048212728e-01
7.198547700233252078e-01
7.393873785199247539e-01
7.488895741229326664e-01
7.570066549047034243e-01
7.682100053492180169e-01
7.656199654712066982e-01
7.728616583856111610e-01
7.578155413133236262e-01
7.431666887004640953e-01
7.245715419738457674e-01
6.905824394323627491e-01
6.618478223587038745e-01
6.615502550221676881e-01
6.738942740117147556e-01
6.848080505835150156e-01
7.119419228924211973e-01
7.138890525686112376e-01
7.269448624470757903e-01
7.382095646306280345e-01
7.303996456864537690e-01
7.274760936767895592e-01
7.079450715157603602e-01
6.946733602240275918e-01
6.734021944431718421e-01
6.520205011862325595e-01
6.446957954496641552e-01
6.362941066659387745e-01
6.343157525659427476e-01
6.390384973054085149e-01
6.508219578658696047e-01
6.584103941783665537e-01
6.654208165059289914e-01
6.757121710725774166e-01
6.746307794653192413e-01
6.856300885070168993e-01
6.759694093033477014e-01
6.699276278488327518e-01
6.542059146254761703e-01
6.439941503948799495e-01
6.367164273578622691e-01
6.384842482253088036e-01
6.431602664291680149e-01
6.405640655667522720e-01
6.409069870759791510e-01
6.343169190010753411e-01
6.364249051551438274e-01
6.429222051650247405e-01
6.383493568400053775e-01
6.378891560366184432e-01
6.262874422886461900e-01
6.275882787652354855e-01
6.222939914361533820e-01
6.147191581599769084e-01
6.203863962384046360e-01
6.331518330934526873e-01
6.419515036394631835e-01
6.407711363944330607e-01
6.472703997061646231e-01
6.442677480250088573e-01
6.379647709929981980e-01
6.309671349357048875e-01
6.202250996100485692e-01
6.071905780998716473e-01
6.012204056439963695e-01
5.942435469677523896e-01
5.789303898348825417e-01
5.512621352554375465e-01
5.767815226278839580e-01
6.073832841021828965e-01
6.223184065125495490e-01
6.590424375789871725e-01
6.928873629544326507e-01
7.194677541460016146e-01
7.366697288505018593e-01
7.593931923564399833e-01
7.663622882546421433e-01
7.681442333813066625e-01
7.509679443363997953e-01
7.150856586631656464e-01
6.825331677538921671e-01
6.362437455116614071e-01
6.363415963767042882e-01
6.063548495195079102e-01
5.833019635544043346e-01
5.862284763789996633e-01
5.879170003494775809e-01
5.951421808043473316e-01
5.955970285754645932e-01
6.220828011367944832e-01
6.415355520540939605e-01
6.578427234740762408e-01
6.757420153753268544e-01
6.926457364852484089e-01
6.999755986299704968e-01
6.924163443826883979e-01
6.930004899586820200e-01
6.887106039986342632e-01
7.016790621548659734e-01
7.049584932922652314e-01
7.184047046271324621e-01
7.138213305729399494e-01
6.991070220305515281e-01
7.019724127817448256e-01
6.941886282632644400e-01
6.823055034023068899e-01
6.824981444338154013e-01
6.771879478469831071e-01
6.495142840445589094e-01
6.244114718387878682e-01
6.025521550262027404e-01
5.989784957138047927e-01
5.889622080599877796e-01
5.782003890122794365e-01
5.898592377310931667e-01
5.850316648590233592e-01
5.789951453346418031e-01
5.872494782624197995e-01
5.954334789711747122e-01
6.003689543454795441e-01
6.075146318353512598e-01
6.168639183183606267e-01
6.088330130548262886e-01
6.005149190361150913e-01
5.872483079964350150e-01
5.825948154991819061e-01
5.804616466098705407e-01
5.871360060665906655e-01
5.891169460617993181e-01
5.852913867573692475e-01
5.965136771752002076e-01
6.041744804323956330e-01
6.187111142741431591e-01
6.294137542243447569e-01
6.293267365704393601e-01
6.199876175143851365e-01
6.070933603440190618e-01
6.039376854422399132e-01
6.125894562705400670e-01
6.328535040866907213e-01
6.811821957975375819e-01
7.046169143691056735e-01
7.269995414450990401e-01
7.539849456588353371e-01
7.811213238660846825e-01
7.700134532729547843e-01
7.697787921464969152e-01
7.675988396097012112e-01
7.606553496173743545e-01
7.481085640175652030e-01
7.314866399248669548e-01
7.305535852769388105e-01
7.195209228785921507e-01
6.988350026986693830e-01
6.864021734614367265e-01
6.479467630701269965e-01
6.328575173688014699e-01
6.063169441831779416e-01
5.998247352694749956e-01
5.904049829522043380e-01
6.417265432595420371e-01
6.946711639571160335e-01
7.242670293602371245e-01
7.263642189892024481e-01
7.047322530927854212e-01
7.029295166914326654e-01
6.895580720853236034e-01
6.763544918566992692e-01
6.610639734989385286e-01
6.528050953571308268e-01
6.557558325941782451e-01
6.541410856374511029e-01
6.814462634410836106e-01
7.142808174995126658e-01
7.502807166864816635e-01
7.554983024502492928e-01
7.438231474205362348e-01
7.188857968400281795e-01
6.932311526608991858e-01
6.855737263356453948e-01
6.835980901275856558e-01
6.742802462243885353e-01
6.597173848519695127e-01
6.455855536898369440e-01
6.202209108466949505e-01
6.047626026239929509e-01
6.034476635753619478e-01
6.070749648580282543e-01
6.063560421867797423e-01
6.324775351493532316e-01
6.517154915977219076e-01
6.724576314061341265e-01
6.710302341594236442e-01
6.583595749260168217e-01
6.542106113631876996e-01
6.306433716090721342e-01
6.064461227644242225e-01
5.807112496825344028e-01
5.564207686685798127e-01
5.500588638293535393e-01
5.478137223730741301e-01
5.555363137522131289e-01
5.586498442424561173e-01
5.749834478050991349e-01
5.874892447132151752e-01
6.281769669528108890e-01
6.539339477585229821e-01
6.958212735720785691e-01
7.163931613025076306e-01
7.104612886796064508e-01
7.146876285333138012e-01
7.127938771856718869e-01
6.974148976468930172e-01
6.628095817611640017e-01
6.300035674669778318e-01
6.020989627836776936e-01
5.817759977669031413e-01
5.804174093966365522e-01
5.930338333828113484e-01
6.258006205296962055e-01
6.632618066893001263e-01
7.061325929897377396e-01
7.073326838115141513e-01
7.069160679058719143e-01
7.140486973043539409e-01
7.106599784788475427e-01
6.899191456918255527e-01
6.685782491615083201e-01
6.643813311584800818e-01
6.742423615657123781e-01
6.807944147432339888e-01
6.991146514555611757e-01
7.143428717997256649e-01
7.251864157644876130e-01
7.435632859204226452e-01
7.542447661062905429e-01
7.448396743733931569e-01
7.316004181953152941e-01
7.231942468404023439e-01
7.137954717823626893e-01
6.969502351352288017e-01
6.870937182715397551e-01
6.769807726746616128e-01
6.841873689552473436e-01
6.744148765755682007e-01
6.765223835657883100e-01
6.734107072421978701e-01
6.712114088976164350e-01
6.739633148194125178e-01
6.835803075098885184e-01
6.749631449710239428e-01
6.728139903598737703e-01
6.739682678155273221e-01
6.730194332209210595e-01
6.726979002992072854e-01
6.721602958812105122e-01
6.743944009549782681e-01
6.815221440292195121e-01
6.773996213365647279e-01
6.851498230067188944e-01
6.885276053287496811e-01
6.951317232990031902e-01
6.987260037878162411e-01
7.080535866333624861e-01
6.964801327421445976e-01
7.006554708148229338e-01
7.006975769227874462e-01
7.071561185119952242e-01
6.983528844082308451e-01
6.949711364320079188e-01
6.899497970695529503e-01
6.774884421583183824e-01
6.690418282185252030e-01
6.576004237734568436e-01
6.776380852199564986e-01
6.791469275503468905e-01
6.741116513677258837e-01
6.759781931661081877e-01
6.746542211630237595e-01
6.815647735477800007e-01
6.927586984625876410e-01
6.881806151705146535e-01
6.596921897033356519e-01
6.404179387545184676e-01
6.163475561251787749e-01
6.056414209581568731e-01
5.946310310733741167e-01
5.953360785276686773e-01
6.131289334053044993e-01
5.933690073823707500e-01
5.909879860127329465e-01
6.036763668278345429e-01
6.199833803356156192e-01
6.368298229387379106e-01
6.572915081309212981e-01
6.553841974640534085e-01
6.506084275073532597e-01
6.590031498186166292e-01
6.782694308041982145e-01
7.004592191050442729e-01
7.022366517111309214e-01
7.123684547476134554e-01
7.049638220282818946e-01
7.033598723861604896e-01
7.122752798797495899e-01
7.205246045153856915e-01
7.189144162933117643e-01
7.169647478548560882e-01
7.236727837017472575e-01
7.174647386779404723e-01
7.004212763567058131e-01
6.867249543842992576e-01
6.692521413957540632e-01
6.497055384591854388e-01
6.137939168908493892e-01
6.021859538155609481e-01
5.846230819496867070e-01
5.704955999742096218e-01
5.624259484090119443e-01
5.651465878899846196e-01
5.549120697248528522e-01
5.445567796152065432e-01
5.471168067963813053e-01
5.590021645748500800e-01
5.629661237693019959e-01
5.831748508875048698e-01
5.962897087652276884e-01
6.103878773218783804e-01
6.141587673592958652e-01
6.300793887613336253e-01
6.401110732170277595e-01
6.406116887399500026e-01
6.331075779601449405e-01
6.303044028743254312e-01
6.330240456936284676e-01
6.051923770395726265e-01
6.083231673811979601e-01
6.432369487020238585e-01
6.634720145122606771e-01
6.696636802188052906e-01
6.284776486537498874e-01
6.205429310481435090e-01
6.190942540984607501e-01
6.024483106905705876e-01
6.072197773485611405e-01
6.197673926389889454e-01
6.690329117014799376e-01
7.139329704783553554e-01
7.482279018641727619e-01
7.126675228741722323e-01
6.394899204262203263e-01
5.782685603554411635e-01
5.148964862810326837e-01
4.696907345305942338e-01
4.416241249202505492e-01
4.763871570112947484e-01
4.934044369534688612e-01
5.066938482517753251e-01
5.584072867913045801e-01
6.296826067505307822e-01
7.216358846179301567e-01
7.583965045564433627e-01
7.534531020064105800e-01
7.083022533073428662e-01
6.172129456828759908e-01
5.922330322416331505e-01
5.898264283099947658e-01
6.170078868577331122e-01
6.337041127201246127e-01
6.546063741487360144e-01
6.589973676998768237e-01
6.664931456841369783e-01
6.884061687135945018e-01
7.055440029696269377e-01
7.244826094445397935e-01
7.238055202853349579e-01
7.118924265223461889e-01
7.149350806574970019e-01
7.000029257160986784e-01
6.958539017455834808e-01
6.720393230267239781e-01
6.514285723473207668e-01
6.361524920234782332e-01
6.371130082580006571e-01
6.284379523227854314e-01
6.279558232676391016e-01
6.302844428928512377e-01
6.145976132908981260e-01
6.089024623245269385e-01
5.973381562472617201e-01
5.828353687004091954e-01
5.777497520359023975e-01
5.633351121183204357e-01
5.521719013500883122e-01
5.579516417640060233e-01
5.519803971241702412e-01
5.610089389468209120e-01
5.815224516673129784e-01
6.021965598358576255e-01
6.216505076090659276e-01
6.243208744886706851e-01
6.222907998096438575e-01
6.259995170179891710e-01
6.159628632111533442e-01
5.959998878718676396e-01
5.886240782105208735e-01
5.798789189691110346e-01
5.715757777861599775e-01
5.694211092979540867e-01
5.444538502199210983e-01
5.305120273251423546e-01
5.442717750525276621e-01
5.564267665512172556e-01
5.786354707156119437e-01
6.065019340295837447e-01
6.982116157522773037e-01
7.588155629045369999e-01
7.917998858684680563e-01
7.968899129414288574e-01
7.502251993467898838e-01
6.832138776933895929e-01
6.154284697280172356e-01
5.679544421125697351e-01
5.287047689941368755e-01
5.064452236183415446e-01
5.102735671106971571e-01
5.272591379161493119e-01
5.674141731507127417e-01
6.387154272433266389e-01
7.341661460680356521e-01
7.783115486365670410e-01
7.946191627118743828e-01
7.720320989712394777e-01
7.050741818368958524e-01
6.691359700368337826e-01
6.522989014737506919e-01
6.577582887863401284e-01
6.659247165119492884e-01
6.722286230344993729e-01
6.817894669163970800e-01
7.042219490978984808e-01
7.175908611168448914e-01
7.336308442615835368e-01
7.412948109446226841e-01
7.581989374366147061e-01
7.519586337292851752e-01
7.417939204946452092e-01
7.224372682477754326e-01
7.066141836623199834e-01
6.867620254459747553e-01
6.708529676057732871e-01
6.452292136084362140e-01
6.222231786038838752e-01
6.209008961470485755e-01
6.207887252013182255e-01
6.121442030243327004e-01
6.180750888673505195e-01
6.262089567013402469e-01
6.300581520773712585e-01
6.247814266723750176e-01
6.191532202719332023e-01
6.239847118670707182e-01
6.224686478794498878e-01
6.250685727408560322e-01
6.346361349068764257e-01
6.307561901043430286e-01
6.435352775456345542e-01
6.470827945746928656e-01
6.417577821577509223e-01
6.372845364760582054e-01
6.416860268681263690e-01
6.411461879042317236e-01
6.339560045732390847e-01
6.297223035649414102e-01
6.264764837573100209e-01
6.348377715575719282e-01
6.304454177440563800e-01
6.407234468042568576e-01
6.429739188652701110e-01
6.404090501549422054e-01
6.320132179820433516e-01
6.205194750331380904e-01
6.192031775533366478e-01
6.472429750714538965e-01
6.936797761568415099e-01
7.268018038986430174e-01
7.712119137303937721e-01
8.105086980291285048e-01
7.991524418144591024e-01
7.345617901343233225e-01
6.727688069587723918e-01
6.289691279788974798e-01
5.860124989860162614e-01
5.592524856359059049e-01
5.336926806579631588e-01
5.453396101007834673e-01
5.724638333726865813e-01
6.378870921666429661e-01
7.046373656929447726e-01
7.554995869779805862e-01
8.178840173819631465e-01
8.332420090919158140e-01
8.017233261851356430e-01
7.369654334926306616e-01
7.080391276129720524e-01
6.877147553125916302e-01
6.744924725543073318e-01
6.510343463733604397e-01
6.310705981981787893e-01
6.219619102788209730e-01
6.013780160324090351e-01
6.005106915822369107e-01
6.048028247689201109e-01
6.100030106497487115e-01
6.186799154622294461e-01
6.283247229997205308e-01
6.317395137035207719e-01
6.264727057506954688e-01
6.527910526872002794e-01
6.779658006837924189e-01
7.041067136877633414e-01
7.260202449087506116e-01
7.468234963267212922e-01
7.660256750760061628e-01
7.767450776288190584e-01
7.845602575650073573e-01
7.793988484189555699e-01
7.854383467225498627e-01
7.907254711977724781e-01
7.799907556817375909e-01
7.522758288786777214e-01
7.358899682974585632e-01
7.334930532953721771e-01
7.272977701884106860e-01
7.350572873752294623e-01
7.469686930789620760e-01
7.521945818017877761e-01
7.535841762501497287e-01
7.599108240497820521e-01
7.570069428145922430e-01
7.584002259271994673e-01
7.750890303231863232e-01
7.884337939636041348e-01
7.879792253782724742e-01
7.876100587870222824e-01
7.840556897522260593e-01
7.780914941721988054e-01
7.748464030139331493e-01
7.638132128411360133e-01
7.500031208996141840e-01
7.442004330777123311e-01
7.371075700487343951e-01
7.385709807531377624e-01
7.264755773586701881e-01
7.166606910248729534e-01
7.125102218437879831e-01
7.175454397898421988e-01
7.240733193305424198e-01
7.306794497125239651e-01
7.337000059358675941e-01
7.333319327616834027e-01
7.328311408220685719e-01
